freq ks1 ks2
   1.0000000000000000e-02   7.2661062347772080e+04   1.4546139548471781e+03
   1.3021938248957823e-02   7.2474915897647443e+04   1.4544660701395574e+03
   1.7375173480348186e-02   7.2124815199309000e+04   1.4541849131288316e+03
   2.3183695675746012e-02   7.1514003635041488e+04   1.4536847549845445e+03
   3.0934007409682190e-02   7.0464306304750338e+04   1.4527955656553943e+03
   4.1275249114978749e-02   6.8705766563416793e+04   1.4512165051183317e+03
   5.5073568934696802e-02   6.5879325232401490e+04   1.4484178601306262e+03
   7.3484668420913155e-02   6.1616207622131697e+04   1.4434749330200605e+03
   9.8050600267699434e-02   5.5735792189501830e+04   1.4347981224009254e+03
   1.0000000000000001e-01   5.5278554961973721e+04   1.4340109237701213e+03
   1.3082892553571276e-01   4.8482524242276515e+04   1.4197285881354760e+03
   1.7456504814960960e-01   4.0559267123225771e+04   1.3940312194282735e+03
   2.3292216083481634e-01   3.2830311921415952e+04   1.3515295269589901e+03
   3.1078806200347264e-01   2.5940117512925404e+04   1.2845826682841985e+03
   4.1468454155538065e-01   2.0153953343658937e+04   1.1865325858055987e+03
   5.5331362439228637e-01   1.5434259516993636e+04   1.0563851906716716e+03
   7.3828642319246263e-01   1.1604304699514296e+04   9.0272525391330259e+02
   9.8509564673918171e-01   8.4890529027522080e+03   7.4187007926739193e+02
   1.0000000000000000e+00   8.3440982246650419e+03   7.3362968947243712e+02
   1.3144132178786001e+00   5.9816369921935084e+03   5.9046465809272922e+02
   1.7538216852879922e+00   4.0322182697134726e+03   4.5916594700118458e+02
   2.3401244463676014e+00   2.5996071327482787e+03   3.5156249007023825e+02
   3.1224282778713799e+00   1.6142718132647619e+03   2.6648492595741305e+02
   4.1662563568293667e+00   9.7763002384793390e+02   2.0063558659048661e+02
   5.5590362647670544e+00   5.8627311518113038e+02   1.5027207863788627e+02
   7.4174226322724754e+00   3.5395526913856480e+02   1.1200333565194811e+02
   9.8970677443590063e+00   2.1902315805737811e+02   8.3078226593074561e+01
   1.0000000000000000e+01   2.1543268300110873e+02   8.2186200327098732e+01
   1.3205658460157320e+01   1.4142978381250404e+02   6.1441025068833227e+01
   1.7620311376136716e+01   9.6574960177918470e+01   4.5622948407242689e+01
   2.3510783194094028e+01   6.9938148786555260e+01   3.4446906620301533e+01
   3.1370440317433694e+01   5.3357504580360441e+01   2.6779381859881401e+01
   4.1857581586515543e+01   4.2561798294772473e+01   2.1578689048896504e+01
   5.5850575208474943e+01   3.5716023358481195e+01   1.7960302148781956e+01
   7.4521427968079351e+01   3.2552772578212696e+01   1.5188172507830792e+01
   9.9433948632975202e+01   3.3246671807412589e+01   1.3228044567010746e+01
   1.0000000000000000e+02   3.3298302844444407e+01   1.3204057916098519e+01
   1.3267472739492132e+02   3.7685423381455671e+01   1.3196112548788133e+01
   1.7702790175104357e+02   4.6163665648776018e+01   1.5983355565753497e+01
   2.3620834663630717e+02   6.0072826511231035e+01   2.0911602121333583e+01
   3.1517282004009826e+02   8.0640038445474175e+01   2.6380993454007427e+01
   4.2053512463288934e+02   1.0075133795751279e+02   3.0784395785709680e+01
   5.6112005796534049e+02   1.0114658106949769e+02   3.3190456107523914e+01
   7.4870254827318831e+02   8.4848248095202763e+01   3.3591196524684193e+01
   9.9899388345406749e+02   6.8670623357042089e+01   3.2459356118459056e+01
   1.0000000000000000e+03   6.8623213889953092e+01   3.2453193950247233e+01
   1.3329576364878171e+03   5.8116885423556127e+01   3.0124711919804160e+01
   1.7785655048536532e+03   5.3320188048785162e+01   2.6885943721270625e+01
   2.3731401272363205e+03   5.3126547622507246e+01   2.3520174187241025e+01
   3.1664811040865279e+03   5.6464812957870663e+01   2.0768383416449218e+01
   4.2250360471607391e+03   6.2764121156872640e+01   1.8864667990277319e+01
   5.6374660113303516e+03   7.1513973013959955e+01   1.7732436690724800e+01
   7.5220714507896337e+03   8.1890729997755940e+01   1.7215410795901374e+01
   1.0000000000000000e+04   9.2799472714381906e+01   1.7161829313412227e+01
   1.0036700673150895e+04   9.2941665637101806e+01   1.7163427924173273e+01
   1.3391970690713499e+04   1.0447699280887446e+02   1.7390107251293248e+01
   1.7868907803606646e+04   1.1841939355510415e+02   1.7517893807096108e+01
   2.3842485431603072e+04   1.3985465272917040e+02   1.6890808928209452e+01
   3.1813030645413648e+04   1.7590873339148263e+02   1.5040595746135097e+01
   4.2448129904465939e+04   2.3076184457638860e+02   1.2347094480236510e+01
   5.6638543886926796e+04   3.0081511373325657e+02   9.6029105506183772e+00
